#Frequency	Median Mag	Phase (Rad)	-1 Sigma Mag	-1 Sigma Phase	+1 Sigma Mag	+1 Sigma Phase
5.000000000000000000e+00	9.838711999999999458e-01	-5.570993899999999652e-03	9.229955199999999582e-01	-5.568224499999999827e-02	1.043665099999999901e+00	4.466151000000000149e-02
5.279491000000000156e+00	9.831649700000000269e-01	-5.340584599999999987e-03	9.264938499999999522e-01	-5.384826899999999722e-02	1.039301100000000089e+00	4.306436899999999818e-02
5.574605000000000032e+00	9.827088600000000174e-01	-5.134706900000000039e-03	9.294263400000000175e-01	-5.214860200000000223e-02	1.035834200000000038e+00	4.177127800000000196e-02
5.886215299999999928e+00	9.823970899999999729e-01	-4.955283000000000430e-03	9.317014000000000129e-01	-5.020994200000000046e-02	1.032723400000000069e+00	4.069037600000000032e-02
6.215244099999999605e+00	9.818273400000000484e-01	-4.510441799999999855e-03	9.335712999999999928e-01	-4.827054000000000067e-02	1.029971600000000098e+00	3.932214900000000068e-02
6.562665100000000251e+00	9.816388400000000125e-01	-4.079769399999999720e-03	9.352816000000000463e-01	-4.625957199999999880e-02	1.028012699999999890e+00	3.827699400000000168e-02
6.929506199999999616e+00	9.816133999999999693e-01	-3.214939200000000059e-03	9.367402500000000520e-01	-4.418263499999999788e-02	1.026252699999999907e+00	3.711905100000000013e-02
7.316853100000000332e+00	9.816266900000000240e-01	-2.475787399999999829e-03	9.379723300000000208e-01	-4.146084099999999828e-02	1.025425699999999996e+00	3.574760700000000069e-02
7.725851999999999720e+00	9.819657699999999600e-01	-1.703443600000000002e-03	9.389630500000000213e-01	-3.857561300000000165e-02	1.025231900000000085e+00	3.426859000000000155e-02
8.157713100000000495e+00	9.823185199999999728e-01	-8.117231300000000028e-04	9.400695300000000421e-01	-3.549191599999999835e-02	1.025020899999999902e+00	3.279812000000000005e-02
8.613714599999999777e+00	9.830437400000000547e-01	-3.543708800000000043e-05	9.412031699999999779e-01	-3.221954900000000011e-02	1.025029500000000038e+00	3.120764399999999966e-02
9.095205699999999283e+00	9.837243900000000041e-01	8.263615000000000196e-04	9.424185299999999765e-01	-2.875978800000000141e-02	1.024955300000000014e+00	2.925346300000000038e-02
9.603611199999999570e+00	9.848099299999999445e-01	1.312230099999999984e-03	9.438865300000000014e-01	-2.534023999999999999e-02	1.025398500000000102e+00	2.710377699999999904e-02
1.014043599999999934e+01	9.859937500000000021e-01	1.759994699999999990e-03	9.455713900000000116e-01	-2.209737200000000054e-02	1.025627499999999914e+00	2.502278700000000120e-02
1.070726799999999912e+01	9.871112300000000062e-01	2.224509300000000050e-03	9.472025200000000478e-01	-1.882656499999999997e-02	1.025619099999999895e+00	2.299746600000000113e-02
1.130578500000000020e+01	9.881204900000000180e-01	2.536637100000000040e-03	9.492682199999999959e-01	-1.597319800000000095e-02	1.025692599999999954e+00	2.085677999999999838e-02
1.193775800000000054e+01	9.891190499999999997e-01	2.694083099999999929e-03	9.515073099999999950e-01	-1.360917199999999924e-02	1.025753200000000032e+00	1.904172100000000104e-02
1.260505700000000040e+01	9.900402699999999445e-01	2.959081200000000193e-03	9.537086900000000256e-01	-1.136843000000000055e-02	1.025400499999999937e+00	1.727303700000000150e-02
1.330965699999999963e+01	9.911651599999999895e-01	3.101077299999999929e-03	9.560268600000000339e-01	-9.732295000000000182e-03	1.025358999999999909e+00	1.571400800000000153e-02
1.405364299999999922e+01	9.920812700000000151e-01	3.060680599999999855e-03	9.583330899999999986e-01	-8.375902299999999842e-03	1.025106300000000026e+00	1.421763600000000051e-02
1.483921600000000041e+01	9.931207800000000363e-01	2.925200900000000069e-03	9.603751600000000055e-01	-7.298603399999999998e-03	1.024879799999999896e+00	1.326882100000000009e-02
1.566870100000000043e+01	9.939657899999999602e-01	2.812276299999999941e-03	9.623445800000000050e-01	-6.916983800000000085e-03	1.024614300000000089e+00	1.270046099999999969e-02
1.654455300000000051e+01	9.948080299999999543e-01	2.633811800000000064e-03	9.642965900000000090e-01	-6.950865700000000320e-03	1.024423899999999943e+00	1.238125900000000036e-02
1.746936399999999878e+01	9.957637299999999581e-01	2.547208799999999863e-03	9.660339000000000009e-01	-7.443076300000000395e-03	1.024610900000000102e+00	1.231822599999999983e-02
1.844586999999999932e+01	9.966281700000000354e-01	2.258924900000000135e-03	9.677661300000000022e-01	-8.394690999999999265e-03	1.024470400000000003e+00	1.278856199999999985e-02
1.947696099999999930e+01	9.971895299999999907e-01	1.916819400000000081e-03	9.692700899999999731e-01	-9.801826300000000131e-03	1.024567900000000087e+00	1.352908700000000040e-02
2.056568800000000152e+01	9.976919699999999835e-01	1.530269699999999922e-03	9.704190799999999895e-01	-1.142729099999999914e-02	1.024965600000000032e+00	1.461717199999999946e-02
2.171527199999999880e+01	9.982864399999999971e-01	1.224358899999999917e-03	9.716966200000000109e-01	-1.341713700000000085e-02	1.025421499999999986e+00	1.609267299999999831e-02
2.292911700000000152e+01	9.986789299999999647e-01	8.995203200000000295e-04	9.724228400000000105e-01	-1.597511899999999943e-02	1.025573099999999904e+00	1.786825900000000092e-02
2.421081300000000169e+01	9.992949700000000046e-01	4.937369300000000148e-04	9.731340699999999622e-01	-1.879208799999999846e-02	1.025962599999999947e+00	2.010216100000000033e-02
2.556415399999999849e+01	9.997544099999999823e-01	1.487560399999999995e-04	9.738331399999999860e-01	-2.198866999999999836e-02	1.026327400000000001e+00	2.264713399999999932e-02
2.699314400000000091e+01	1.000330799999999964e+00	-2.259108199999999866e-04	9.745436600000000338e-01	-2.589806199999999947e-02	1.026677300000000015e+00	2.573251899999999884e-02
2.850201200000000057e+01	1.000729600000000108e+00	-5.811734900000000347e-04	9.755808099999999650e-01	-3.026521100000000020e-02	1.026605800000000013e+00	2.888724399999999942e-02
3.009522300000000072e+01	1.001079899999999911e+00	-1.150706100000000072e-03	9.765949499999999617e-01	-3.483467700000000139e-02	1.026222200000000084e+00	3.250168999999999975e-02
3.177749100000000126e+01	1.001581599999999961e+00	-1.764778000000000050e-03	9.776583100000000304e-01	-4.004244400000000342e-02	1.025772399999999918e+00	3.623223899999999942e-02
3.355379599999999840e+01	1.001834899999999973e+00	-2.309989599999999910e-03	9.786123500000000197e-01	-4.531363299999999900e-02	1.025565099999999896e+00	3.944797199999999782e-02
3.542939200000000000e+01	1.002154699999999954e+00	-2.946354899999999860e-03	9.780020799999999959e-01	-5.023923200000000172e-02	1.026053099999999940e+00	4.285282499999999717e-02
3.740983200000000153e+01	1.002341499999999996e+00	-3.495324100000000208e-03	9.757302199999999814e-01	-5.428522799999999787e-02	1.028295399999999971e+00	4.513725200000000271e-02
3.950097399999999936e+01	1.002172400000000074e+00	-4.068929800000000048e-03	9.703700499999999840e-01	-5.655848900000000345e-02	1.032373599999999891e+00	4.571121300000000054e-02
4.170900699999999972e+01	1.001295000000000046e+00	-4.783782799999999717e-03	9.620710300000000492e-01	-5.679518100000000014e-02	1.038424000000000014e+00	4.435368700000000275e-02
4.404046499999999753e+01	9.999668499999999627e-01	-4.837031200000000385e-03	9.529305999999999610e-01	-5.338162400000000252e-02	1.045563400000000032e+00	4.050688399999999995e-02
4.650224699999999700e+01	9.987820400000000376e-01	-4.347309100000000190e-03	9.451392699999999758e-01	-4.706768699999999694e-02	1.051449300000000031e+00	3.382187700000000019e-02
4.910163899999999870e+01	9.981655000000000388e-01	-3.939450399999999859e-03	9.398263199999999928e-01	-3.896162400000000026e-02	1.054633699999999896e+00	2.778332899999999897e-02
5.184633199999999675e+01	9.977463600000000543e-01	-3.967911200000000249e-03	9.384844500000000256e-01	-3.179159899999999678e-02	1.055352800000000091e+00	2.246411800000000167e-02
5.474444799999999844e+01	9.974080300000000010e-01	-3.675608600000000118e-03	9.404141599999999990e-01	-2.781012700000000046e-02	1.053008699999999909e+00	2.147479199999999949e-02
5.780456399999999917e+01	9.967486100000000349e-01	-3.134334099999999939e-03	9.442910199999999810e-01	-2.796327100000000135e-02	1.049210600000000104e+00	2.372181099999999890e-02
6.103573500000000251e+01	9.966121500000000299e-01	-2.541526899999999988e-03	9.491606599999999894e-01	-2.940045100000000106e-02	1.043813300000000055e+00	2.668637899999999966e-02
6.444752200000000641e+01	9.965786800000000500e-01	-2.076052200000000174e-03	9.545631199999999872e-01	-3.125249299999999925e-02	1.038396600000000003e+00	2.956137299999999843e-02
6.805002199999999846e+01	9.965826899999999933e-01	-1.512987300000000028e-03	9.602370999999999546e-01	-3.252656799999999876e-02	1.032725600000000021e+00	3.189540700000000062e-02
7.185389600000000598e+01	9.965422900000000528e-01	-1.283264299999999991e-03	9.656473700000000049e-01	-3.338119900000000029e-02	1.027807600000000043e+00	3.321455699999999872e-02
7.587039900000000614e+01	9.966653599999999447e-01	-7.711780100000000361e-04	9.706286100000000028e-01	-3.372745900000000130e-02	1.023355699999999979e+00	3.403294700000000089e-02
8.011141700000000299e+01	9.967179900000000536e-01	-6.787349000000000463e-04	9.748927099999999957e-01	-3.384824399999999955e-02	1.019283200000000056e+00	3.437949399999999656e-02
8.458950099999999850e+01	9.968117399999999462e-01	-2.752228100000000044e-04	9.784582400000000346e-01	-3.367758700000000188e-02	1.015957800000000022e+00	3.435230300000000070e-02
8.931790100000000621e+01	9.968238400000000166e-01	6.906693600000000629e-05	9.814669200000000204e-01	-3.321088900000000038e-02	1.012920899999999902e+00	3.425352999999999731e-02
9.431060999999999694e+01	9.969231800000000199e-01	3.940628699999999753e-04	9.834982300000000288e-01	-3.275559499999999846e-02	1.010511200000000054e+00	3.389996900000000202e-02
9.958240299999999934e+01	9.967023600000000094e-01	9.635235999999999714e-04	9.847307299999999985e-01	-3.190749899999999889e-02	1.009008200000000022e+00	3.353659199999999702e-02
1.051488800000000055e+02	9.966277500000000344e-01	1.450495499999999950e-03	9.854045500000000457e-01	-3.109935399999999919e-02	1.008171699999999893e+00	3.310425699999999805e-02
1.110265100000000018e+02	9.966297899999999599e-01	1.816701200000000061e-03	9.853491599999999462e-01	-2.977892000000000039e-02	1.007953000000000099e+00	3.266634499999999941e-02
1.172326900000000052e+02	9.962795100000000348e-01	2.168650399999999968e-03	9.845357300000000533e-01	-2.846182699999999857e-02	1.008336700000000086e+00	3.246278699999999989e-02
1.237857900000000058e+02	9.962072699999999781e-01	2.891634399999999834e-03	9.833761500000000044e-01	-2.715629599999999991e-02	1.009400199999999970e+00	3.203032299999999943e-02
1.307051899999999875e+02	9.961089300000000035e-01	3.678078500000000160e-03	9.818186399999999647e-01	-2.552939499999999987e-02	1.011027399999999909e+00	3.185897699999999666e-02
1.380113800000000026e+02	9.960922899999999913e-01	4.349393000000000009e-03	9.799724699999999844e-01	-2.352552100000000063e-02	1.013035300000000083e+00	3.138541599999999931e-02
1.457259599999999864e+02	9.962438500000000419e-01	5.361815600000000015e-03	9.780987300000000273e-01	-2.123926799999999865e-02	1.015232399999999924e+00	3.073623600000000011e-02
1.538717800000000011e+02	9.965260599999999913e-01	6.112227399999999727e-03	9.761442299999999461e-01	-1.830175100000000152e-02	1.017581400000000080e+00	2.957488900000000004e-02
1.624729399999999941e+02	9.972318300000000413e-01	6.870152299999999698e-03	9.748383200000000359e-01	-1.496189399999999989e-02	1.020081100000000074e+00	2.795283999999999963e-02
1.715548799999999972e+02	9.981756999999999991e-01	7.677705600000000151e-03	9.741551099999999908e-01	-1.108585899999999999e-02	1.022291000000000061e+00	2.581217900000000107e-02
1.811444899999999905e+02	9.991475100000000165e-01	8.175913400000000067e-03	9.743068200000000179e-01	-7.315656700000000047e-03	1.023849800000000032e+00	2.316518600000000080e-02
1.912701399999999978e+02	1.000195100000000004e+00	8.246523699999999332e-03	9.757976400000000217e-01	-3.998462900000000243e-03	1.024499400000000060e+00	2.029592599999999886e-02
2.019617900000000077e+02	1.001152700000000006e+00	8.036933399999999714e-03	9.780884199999999584e-01	-1.701563300000000006e-03	1.024212700000000087e+00	1.781318499999999874e-02
2.132510900000000049e+02	1.001870000000000038e+00	7.604754099999999628e-03	9.806181899999999452e-01	-5.849834400000000507e-04	1.023008700000000104e+00	1.580789200000000047e-02
2.251714399999999898e+02	1.002323400000000087e+00	7.165578300000000241e-03	9.831569599999999687e-01	-3.175103000000000083e-04	1.021489899999999951e+00	1.447603100000000031e-02
2.377581199999999910e+02	1.002654699999999899e+00	6.728160199999999591e-03	9.854824500000000098e-01	-3.165181600000000189e-04	1.019606800000000035e+00	1.360496100000000048e-02
2.510483700000000056e+02	1.002578699999999934e+00	6.407327600000000192e-03	9.872384199999999499e-01	-5.370975200000000340e-04	1.017902800000000108e+00	1.304728100000000085e-02
2.650815200000000118e+02	1.002485999999999988e+00	6.052176400000000393e-03	9.888735400000000508e-01	-8.437775699999999811e-04	1.016209899999999999e+00	1.259657500000000048e-02
2.798990999999999758e+02	1.002130900000000047e+00	5.491846499999999617e-03	9.902655900000000289e-01	-1.385017799999999945e-03	1.014188300000000043e+00	1.211252900000000035e-02
2.955449499999999716e+02	1.000266099999999936e+00	4.631719099999999888e-03	9.896544900000000533e-01	-3.392472100000000143e-03	1.011183200000000060e+00	1.282207399999999928e-02
3.120653800000000047e+02	1.000284500000000021e+00	6.561085900000000228e-03	9.885293699999999628e-01	-2.048935799999999832e-03	1.012386500000000078e+00	1.513896999999999986e-02
3.295092700000000150e+02	1.001506900000000089e+00	8.859838199999999289e-03	9.859687099999999704e-01	1.162218600000000006e-03	1.017221200000000048e+00	1.653055200000000044e-02
3.479282499999999914e+02	1.002124500000000085e+00	7.796534800000000202e-03	9.892526000000000375e-01	6.278547200000000059e-04	1.015238499999999933e+00	1.485644300000000043e-02
3.673768099999999777e+02	1.001980599999999999e+00	7.532272399999999715e-03	9.899980800000000025e-01	2.708330199999999747e-04	1.014118999999999993e+00	1.479545099999999939e-02
3.879125099999999975e+02	1.001736299999999913e+00	7.504902899999999800e-03	9.903106200000000303e-01	2.422258199999999956e-04	1.013516700000000048e+00	1.470806099999999970e-02
4.095961199999999849e+02	1.001270199999999999e+00	7.528567299999999567e-03	9.902220099999999858e-01	3.393097599999999854e-04	1.012687099999999951e+00	1.471653199999999918e-02
4.324918000000000120e+02	1.000236200000000020e+00	8.698215800000000733e-03	9.892821699999999607e-01	3.747546600000000025e-04	1.011402600000000040e+00	1.722969099999999837e-02
4.566673099999999863e+02	1.000265500000000030e+00	8.776552899999999838e-03	9.893586500000000061e-01	5.822969999999999579e-04	1.011058800000000035e+00	1.729995999999999964e-02
4.821941899999999919e+02	1.001696399999999931e+00	1.053426699999999994e-02	9.895945800000000014e-01	2.755007500000000026e-03	1.014008199999999915e+00	1.846718799999999897e-02
5.091479699999999866e+02	1.001306299999999982e+00	1.057770700000000043e-02	9.900081299999999862e-01	2.529661900000000196e-03	1.012778299999999909e+00	1.889474400000000151e-02
5.376084299999999985e+02	1.000934100000000049e+00	1.119649399999999954e-02	9.897175299999999565e-01	2.542882099999999816e-03	1.012281999999999904e+00	2.029736799999999966e-02
5.676597699999999804e+02	1.002233399999999941e+00	1.144348799999999992e-02	9.906795999999999935e-01	3.668584600000000112e-03	1.014204600000000012e+00	1.926560500000000162e-02
5.993909200000000510e+02	1.001855099999999998e+00	1.167838199999999931e-02	9.907053500000000401e-01	3.725694600000000085e-03	1.013385299999999933e+00	1.982180799999999979e-02
6.328957900000000336e+02	1.001809900000000031e+00	1.242058600000000082e-02	9.905018300000000275e-01	3.826867900000000162e-03	1.013377299999999925e+00	2.109913299999999908e-02
6.682735300000000507e+02	1.001892699999999969e+00	1.317967599999999954e-02	9.903923100000000534e-01	4.091703200000000422e-03	1.013665199999999933e+00	2.260570500000000024e-02
7.056288100000000441e+02	1.002171799999999946e+00	1.398839999999999979e-02	9.904581000000000079e-01	4.371439599999999738e-03	1.014379900000000001e+00	2.387985299999999950e-02
7.450721899999999778e+02	1.002520000000000078e+00	1.473226099999999997e-02	9.903533399999999709e-01	4.551914899999999660e-03	1.015245299999999906e+00	2.519824600000000053e-02
7.867203799999999774e+02	1.002889600000000048e+00	1.539222699999999965e-02	9.902526400000000173e-01	4.741350400000000215e-03	1.016039300000000090e+00	2.640775299999999909e-02
8.306966200000000526e+02	1.003260700000000005e+00	1.606868100000000132e-02	9.900699899999999554e-01	4.768350699999999998e-03	1.017191200000000073e+00	2.767411900000000050e-02
8.771310700000000224e+02	1.003680600000000034e+00	1.668527100000000152e-02	9.898008700000000548e-01	4.635692200000000353e-03	1.018290499999999987e+00	2.899427300000000096e-02
9.261611100000000079e+02	1.004092500000000054e+00	1.733102200000000148e-02	9.894852299999999934e-01	4.435392100000000275e-03	1.019261299999999926e+00	3.027791100000000110e-02
9.779318399999999656e+02	1.004371399999999914e+00	1.810289899999999869e-02	9.890900500000000539e-01	4.062923100000000003e-03	1.020302599999999948e+00	3.196769900000000220e-02
1.032596500000000106e+03	1.004717400000000094e+00	1.879346499999999878e-02	9.885065200000000551e-01	3.617966199999999872e-03	1.021585600000000094e+00	3.371735599999999694e-02
1.090316700000000083e+03	1.005293200000000109e+00	1.955771900000000119e-02	9.879796100000000081e-01	3.235670400000000089e-03	1.023056699999999930e+00	3.544539699999999655e-02
1.151263500000000022e+03	1.005733800000000011e+00	2.034999399999999972e-02	9.874190600000000151e-01	2.794057899999999837e-03	1.024220099999999967e+00	3.739617600000000319e-02
1.215616999999999962e+03	1.006333399999999934e+00	2.113047700000000167e-02	9.866994300000000440e-01	2.264965900000000167e-03	1.026033399999999984e+00	3.943216299999999924e-02
1.283567800000000034e+03	1.006814899999999957e+00	2.194263000000000116e-02	9.859127899999999833e-01	1.611914600000000086e-03	1.027804699999999904e+00	4.140053099999999736e-02
1.355317000000000007e+03	1.007319899999999935e+00	2.273850900000000050e-02	9.851017399999999480e-01	1.029348999999999932e-03	1.029844200000000098e+00	4.365548000000000345e-02
1.431076700000000073e+03	1.007807200000000014e+00	2.349522199999999963e-02	9.842716099999999635e-01	1.133516499999999975e-04	1.031643000000000088e+00	4.597907600000000067e-02
1.511071300000000065e+03	1.008338900000000038e+00	2.413875600000000080e-02	9.831939299999999937e-01	-8.416087800000000103e-04	1.033838599999999941e+00	4.827676200000000084e-02
1.595537499999999909e+03	1.008888699999999972e+00	2.491818700000000136e-02	9.823491600000000545e-01	-1.840029900000000060e-03	1.036084699999999970e+00	5.057132599999999978e-02
1.684725200000000086e+03	1.009478799999999898e+00	2.565635700000000116e-02	9.811743200000000442e-01	-2.831394799999999937e-03	1.038357699999999939e+00	5.289046399999999815e-02
1.778898200000000088e+03	1.010105199999999925e+00	2.627042300000000108e-02	9.799395699999999820e-01	-3.947620899999999648e-03	1.040918900000000091e+00	5.545648000000000244e-02
1.878335399999999936e+03	1.010678399999999977e+00	2.711413899999999891e-02	9.787247199999999925e-01	-5.244392199999999699e-03	1.043635400000000102e+00	5.819440199999999924e-02
1.983330999999999904e+03	1.011328400000000016e+00	2.781791600000000156e-02	9.773981899999999445e-01	-6.491483400000000285e-03	1.046485799999999911e+00	6.094025000000000136e-02
2.094195600000000013e+03	1.011937899999999946e+00	2.861177300000000007e-02	9.760189500000000518e-01	-7.837709300000000531e-03	1.049163899999999927e+00	6.399407299999999854e-02
2.211257399999999961e+03	1.012599699999999991e+00	2.944728200000000171e-02	9.746494100000000493e-01	-9.192264000000000337e-03	1.051950299999999894e+00	6.717227800000000193e-02
